freq,psd_x,psd_y,psd_z,psd_xyz
0.0,1.218e+01,2.453e+01,4.554e+02,4.921e+02
1.5,5.819e+01,9.304e+01,3.727e+02,5.239e+02
3.1,7.119e+01,9.793e+01,1.570e+02,3.261e+02
4.6,7.445e+01,1.016e+02,4.848e+02,6.609e+02
6.1,7.656e+01,9.952e+01,1.483e+03,1.659e+03
7.6,7.037e+01,9.309e+01,2.002e+03,2.166e+03
9.2,7.294e+01,1.017e+02,2.813e+03,2.987e+03
10.7,8.034e+01,1.003e+02,3.863e+03,4.044e+03
12.2,8.120e+01,1.026e+02,5.060e+03,5.244e+03
13.8,7.587e+01,1.028e+02,6.464e+03,6.643e+03
15.3,7.467e+01,1.012e+02,7.930e+03,8.106e+03
16.8,7.850e+01,1.008e+02,9.930e+03,1.011e+04
18.3,8.456e+01,1.048e+02,1.236e+04,1.255e+04
19.9,8.418e+01,1.106e+02,1.464e+04,1.483e+04
21.4,8.203e+01,1.101e+02,1.737e+04,1.757e+04
22.9,8.943e+01,1.127e+02,2.100e+04,2.120e+04
24.5,9.138e+01,1.052e+02,2.522e+04,2.541e+04
26.0,9.221e+01,1.112e+02,3.000e+04,3.020e+04
27.5,1.019e+02,1.121e+02,3.548e+04,3.569e+04
29.0,1.291e+02,1.190e+02,4.244e+04,4.269e+04
30.6,1.580e+02,1.423e+02,5.069e+04,5.099e+04
32.1,1.436e+02,1.387e+02,6.057e+04,6.086e+04
33.6,1.380e+02,1.238e+02,7.229e+04,7.255e+04
35.2,1.582e+02,1.317e+02,8.571e+04,8.600e+04
36.7,1.961e+02,1.249e+02,1.014e+05,1.017e+05
38.2,2.481e+02,1.184e+02,1.238e+05,1.242e+05
39.7,3.155e+02,1.289e+02,1.551e+05,1.556e+05
41.3,4.324e+02,1.172e+02,1.960e+05,1.966e+05
42.8,5.873e+02,1.580e+02,2.540e+05,2.547e+05
44.3,7.694e+02,3.003e+02,3.416e+05,3.426e+05
45.9,1.101e+03,7.125e+02,4.786e+05,4.804e+05
47.4,1.450e+03,3.664e+03,7.432e+05,7.483e+05
48.9,8.065e+02,1.078e+04,1.085e+06,1.097e+06
50.5,2.482e+02,1.586e+04,1.124e+06,1.141e+06
52.0,3.363e+02,1.479e+04,1.008e+06,1.023e+06
53.5,8.937e+02,1.259e+04,8.668e+05,8.803e+05
55.0,1.405e+03,1.256e+04,7.567e+05,7.707e+05
56.6,1.260e+03,1.348e+04,6.750e+05,6.898e+05
58.1,8.321e+02,1.494e+04,5.699e+05,5.857e+05
59.6,9.127e+02,1.516e+04,4.760e+05,4.921e+05
61.2,1.202e+03,1.203e+04,3.973e+05,4.106e+05
62.7,1.033e+03,7.800e+03,3.288e+05,3.376e+05
64.2,8.201e+02,6.346e+03,2.565e+05,2.636e+05
65.7,7.320e+02,6.935e+03,2.233e+05,2.310e+05
67.3,1.446e+03,6.961e+03,2.110e+05,2.194e+05
68.8,2.012e+03,5.044e+03,1.961e+05,2.032e+05
70.3,1.669e+03,2.861e+03,1.749e+05,1.795e+05
71.9,1.747e+03,1.370e+03,1.946e+05,1.977e+05
73.4,2.594e+03,6.738e+02,2.664e+05,2.697e+05
74.9,3.165e+03,2.936e+02,3.237e+05,3.272e+05
76.4,3.169e+03,3.745e+02,3.248e+05,3.283e+05
78.0,3.655e+03,1.076e+03,3.175e+05,3.222e+05
79.5,3.275e+03,2.386e+03,3.525e+05,3.582e+05
81.0,2.577e+03,3.252e+03,3.469e+05,3.527e+05
82.6,2.466e+03,4.385e+03,3.316e+05,3.384e+05
84.1,3.346e+03,5.957e+03,3.153e+05,3.246e+05
85.6,3.367e+03,8.727e+03,2.916e+05,3.037e+05
87.1,2.731e+03,1.096e+04,2.941e+05,3.078e+05
88.7,2.808e+03,1.499e+04,2.995e+05,3.173e+05
90.2,2.727e+03,1.978e+04,2.857e+05,3.083e+05
91.7,2.778e+03,2.430e+04,2.963e+05,3.234e+05
93.3,2.368e+03,2.282e+04,2.883e+05,3.135e+05
94.8,1.837e+03,1.946e+04,2.789e+05,3.002e+05
96.3,1.132e+03,1.939e+04,2.823e+05,3.028e+05
97.8,6.720e+02,2.036e+04,2.545e+05,2.756e+05
99.4,7.326e+02,2.249e+04,2.328e+05,2.560e+05
100.9,8.347e+02,2.472e+04,2.340e+05,2.595e+05
102.4,1.118e+03,2.575e+04,2.330e+05,2.599e+05
104.0,1.186e+03,2.382e+04,2.350e+05,2.600e+05
105.5,1.159e+03,2.011e+04,2.326e+05,2.539e+05
107.0,8.640e+02,1.746e+04,2.326e+05,2.509e+05
108.5,6.186e+02,1.733e+04,2.283e+05,2.463e+05
110.1,6.269e+02,1.655e+04,2.187e+05,2.359e+05
111.6,5.526e+02,1.440e+04,2.034e+05,2.183e+05
113.1,4.684e+02,1.275e+04,1.861e+05,1.993e+05
114.7,4.364e+02,1.217e+04,1.799e+05,1.925e+05
116.2,3.686e+02,1.193e+04,1.776e+05,1.899e+05
117.7,2.673e+02,1.133e+04,1.758e+05,1.874e+05
119.2,1.854e+02,1.052e+04,1.718e+05,1.825e+05
120.8,1.379e+02,9.353e+03,1.657e+05,1.752e+05
122.3,1.366e+02,8.471e+03,1.603e+05,1.689e+05
123.8,1.771e+02,7.724e+03,1.535e+05,1.614e+05
125.4,2.317e+02,7.089e+03,1.540e+05,1.614e+05
126.9,3.797e+02,6.975e+03,1.630e+05,1.703e+05
128.4,6.822e+02,6.584e+03,1.664e+05,1.736e+05
129.9,9.447e+02,6.614e+03,1.643e+05,1.719e+05
131.5,1.112e+03,5.797e+03,1.467e+05,1.536e+05
133.0,7.056e+02,2.776e+03,7.444e+04,7.792e+04
134.5,1.805e+02,4.265e+02,8.359e+03,8.967e+03
136.1,1.429e+02,2.953e+02,3.621e+03,4.059e+03
137.6,1.245e+02,3.020e+02,3.548e+03,3.975e+03
139.1,1.416e+02,2.843e+02,3.238e+03,3.664e+03
140.7,1.676e+02,2.917e+02,3.203e+03,3.663e+03
142.2,1.707e+02,3.438e+02,3.320e+03,3.834e+03
143.7,2.109e+02,4.827e+02,3.829e+03,4.523e+03
145.2,3.721e+02,8.721e+02,4.660e+03,5.904e+03
146.8,5.612e+02,1.332e+03,4.551e+03,6.444e+03
148.3,5.577e+02,1.359e+03,4.005e+03,5.922e+03
149.8,4.142e+02,9.302e+02,4.076e+03,5.421e+03
151.4,3.397e+02,6.777e+02,3.986e+03,5.003e+03
152.9,2.832e+02,4.685e+02,3.505e+03,4.257e+03
154.4,3.157e+02,3.495e+02,3.219e+03,3.884e+03
155.9,2.889e+02,3.198e+02,2.915e+03,3.524e+03
157.5,2.204e+02,3.052e+02,2.428e+03,2.953e+03
159.0,2.048e+02,3.054e+02,2.133e+03,2.644e+03
160.5,2.027e+02,4.858e+02,2.300e+03,2.988e+03
162.1,2.122e+02,1.674e+03,3.187e+03,5.073e+03
163.6,2.522e+02,6.337e+03,4.445e+03,1.103e+04
165.1,3.008e+02,8.253e+03,4.205e+03,1.276e+04
166.6,2.799e+02,7.020e+03,3.666e+03,1.097e+04
168.2,2.948e+02,1.152e+04,4.900e+03,1.671e+04
169.7,3.031e+02,1.149e+04,4.642e+03,1.643e+04
171.2,2.740e+02,1.824e+03,2.124e+03,4.222e+03
172.8,5.240e+02,6.865e+03,3.220e+03,1.061e+04
174.3,1.425e+03,2.870e+04,6.535e+03,3.666e+04
175.8,1.134e+03,2.056e+04,4.934e+03,2.663e+04
177.3,4.191e+02,1.641e+03,2.673e+03,4.733e+03
178.9,4.698e+02,7.746e+02,3.995e+03,5.240e+03
180.4,4.920e+02,7.621e+02,4.499e+03,5.753e+03
181.9,4.422e+02,5.660e+02,3.793e+03,4.802e+03
183.5,4.655e+02,4.964e+02,3.690e+03,4.652e+03
185.0,4.442e+02,4.965e+02,3.856e+03,4.797e+03
186.5,5.543e+02,4.720e+02,4.411e+03,5.438e+03
188.0,6.125e+02,5.064e+02,5.021e+03,6.140e+03
189.6,6.215e+02,5.243e+02,5.190e+03,6.336e+03
191.1,6.927e+02,4.875e+02,5.497e+03,6.677e+03
192.6,8.286e+02,4.938e+02,6.487e+03,7.810e+03
194.2,1.162e+03,6.232e+02,9.225e+03,1.101e+04
195.7,1.436e+03,7.075e+02,1.148e+04,1.363e+04
197.2,1.388e+03,8.009e+02,1.182e+04,1.401e+04
198.7,1.323e+03,9.264e+02,1.226e+04,1.451e+04
